Frequency (Hz)	Level (dB)
0.336456	-84.847427
0.672913	-84.846992
1.009369	-84.846268
1.345825	-84.845276
1.682281	-84.843979
2.018738	-84.842384
2.355194	-84.840530
2.691650	-84.838379
3.028107	-84.835907
3.364563	-84.833221
3.701019	-84.830177
4.037476	-84.826859
4.373932	-84.823296
4.710388	-84.819389
5.046844	-84.815224
5.383301	-84.810760
5.719757	-84.806015
6.056213	-84.800987
6.392670	-84.795662
6.729126	-84.790039
7.065582	-84.784119
7.402039	-84.777954
7.738495	-84.771431
8.074951	-84.764694
8.411407	-84.757675
8.747864	-84.750252
9.084320	-84.742653
9.420776	-84.734726
9.757233	-84.726509
10.093689	-84.717995
10.430145	-84.709190
10.766602	-84.700104
11.103058	-84.690720
11.439514	-84.681038
11.775970	-84.671066
12.112427	-84.660828
12.448883	-84.650246
12.785339	-84.639412
13.121796	-84.628273
13.458252	-84.616859
13.794708	-84.605309
14.131165	-84.592972
14.467621	-84.580772
14.804077	-84.568161
15.140533	-84.555283
15.476990	-84.542053
15.813446	-84.528549
16.149902	-84.514763
16.486359	-84.500671
16.822815	-84.486282
17.159271	-84.471596
17.495728	-84.456596
17.832184	-84.441315
18.168640	-84.425743
18.505096	-84.409851
18.841553	-84.393661
19.178009	-84.377174
19.514465	-84.360359
19.850922	-84.343292
20.187378	-84.325882
20.523834	-84.308189
20.860291	-84.290199
21.196747	-84.271889
21.533203	-84.253273
21.869659	-84.234360
22.206116	-84.215126
22.542572	-84.195595
22.879028	-84.175766
23.215485	-84.155602
23.551941	-84.135139
23.888397	-84.114372
24.224854	-84.093292
24.561310	-84.071884
24.897766	-84.050209
25.234222	-84.028168
25.570679	-84.005814
25.907135	-83.983185
26.243591	-83.960197
26.580048	-83.936913
26.916504	-83.913315
27.252960	-83.889389
27.589417	-83.865135
27.925873	-83.840569
28.262329	-83.815674
28.598785	-83.790466
28.935242	-83.764954
29.271698	-83.739029
29.608154	-83.712883
29.944611	-83.686356
30.281067	-83.659485
30.617523	-83.632317
30.953979	-83.604805
31.290436	-83.576942
31.626892	-83.548752
31.963348	-83.520256
32.299805	-83.491394
32.636261	-83.462204
32.972717	-83.432671
33.309174	-83.402779
33.645630	-83.372505
33.982086	-83.342003
34.318542	-83.311081
34.654999	-83.279831
34.991455	-83.248215
35.327911	-83.216171
35.664368	-83.183952
36.000824	-83.151268
36.337280	-83.118225
36.673737	-83.084846
37.010193	-83.051102
37.346649	-83.016983
37.683105	-82.982506
38.019562	-82.947662
38.356018	-82.912460
38.692474	-82.876884
39.028931	-82.840919
39.365387	-82.804581
39.701843	-82.767891
40.038300	-82.730797
40.374756	-82.693314
40.711212	-82.655464
41.047668	-82.617210
41.384125	-82.578583
41.720581	-82.539566
42.057037	-82.500137
42.393494	-82.460312
42.729950	-82.420090
43.066406	-82.379486
43.402863	-82.338448
43.739319	-82.297012
44.075775	-82.255157
44.412231	-82.212906
44.748688	-82.170204
45.085144	-82.127098
45.421600	-82.083565
45.758057	-82.039619
46.094513	-81.995201
46.430969	-81.950424
46.767426	-81.905128
47.103882	-81.859413
47.440338	-81.813278
47.776794	-81.766655
48.113251	-81.719589
48.449707	-81.672096
48.786163	-81.624092
49.122620	-81.575653
49.459076	-81.526733
49.795532	-81.477325
50.131989	-81.427460
50.468445	-81.377098
50.804901	-81.326241
51.141357	-81.274902
51.477814	-81.223076
51.814270	-81.170708
52.150726	-81.117851
52.487183	-81.064514
52.823639	-81.010582
53.160095	-80.956161
53.496552	-80.901207
53.833008	-80.845718
54.169464	-80.789688
54.505920	-80.733109
54.842377	-80.675957
55.178833	-80.618256
55.515289	-80.559990
55.851746	-80.501122
56.188202	-80.441711
56.524658	-80.381729
56.861115	-80.320953
57.197571	-80.259918
57.534027	-80.197983
57.870483	-80.135529
58.206940	-80.072433
58.543396	-80.008705
58.879852	-79.944321
59.216309	-79.879295
59.552765	-79.813599
59.889221	-79.747231
60.225677	-79.680176
60.562134	-79.612427
60.898590	-79.543983
61.235046	-79.474823
61.571503	-79.404938
61.907959	-79.334320
62.244415	-79.262962
62.580872	-79.190826
62.917328	-79.117935
63.253784	-79.044258
63.590240	-78.969788
63.926697	-78.894516
64.263153	-78.818428
64.599609	-78.741486
64.936066	-78.663719
65.272522	-78.585068
65.608978	-78.505547
65.945435	-78.425140
66.281891	-78.343811
66.618347	-78.261574
66.954803	-78.178375
67.291260	-78.094231
67.627716	-78.009079
67.964172	-77.923019
68.300629	-77.835846
68.637085	-77.747673
68.973541	-77.658417
69.309998	-77.568130
69.646454	-77.476730
69.982910	-77.384201
70.319366	-77.290527
70.655823	-77.195679
70.992279	-77.099655
71.328735	-77.002388
71.665192	-76.903885
72.001648	-76.804115
72.338104	-76.703018
72.674561	-76.600609
73.011017	-76.496841
73.347473	-76.391647
73.683929	-76.285049
74.020386	-76.176964
74.356842	-76.067398
74.693298	-75.956284
75.029755	-75.843597
75.366211	-75.729286
75.702667	-75.613304
76.039124	-75.495636
76.375580	-75.376198
76.712036	-75.254974
77.048492	-75.131897
77.384949	-75.006920
77.721405	-74.879982
78.057861	-74.751015
78.394318	-74.619904
78.730774	-74.486855
79.067230	-74.351471
79.403687	-74.213837
79.740143	-74.073853
80.076599	-73.931458
80.413055	-73.786552
80.749512	-73.639076
81.085968	-73.488930
81.422424	-73.336014
81.758881	-73.180237
82.095337	-73.021492
82.431793	-72.859688
82.768250	-72.694687
83.104706	-72.526375
83.441162	-72.354614
83.777618	-72.179298
84.114075	-72.000229
84.450531	-71.817299
84.786987	-71.630325
85.123444	-71.439133
85.459900	-71.243530
85.796356	-71.043327
86.132812	-70.838310
86.469269	-70.628242
86.805725	-70.412865
87.142181	-70.191940
87.478638	-69.965164
87.815094	-69.732231
88.151550	-69.492821
88.488007	-69.246552
88.824463	-68.993057
89.160919	-68.731865
89.497375	-68.462624
89.833832	-68.184669
90.170288	-67.897545
90.506744	-67.600632
90.843201	-67.293243
91.179657	-66.974640
91.516113	-66.644012
91.852570	-66.300430
92.189026	-65.942879
92.525482	-65.570221
92.861938	-65.181183
93.198395	-64.774323
93.534851	-64.348000
93.871307	-63.900379
94.207764	-63.429356
94.544220	-62.932541
94.880676	-62.407146
95.217133	-61.850105
95.553589	-61.257835
95.890045	-60.626358
96.226501	-59.951324
96.562958	-59.228287
96.899414	-58.453419
97.235870	-57.625450
97.572327	-56.750740
97.908783	-55.857971
98.245239	-55.046539
98.581696	-54.692574
98.918152	-56.998211
99.254608	-51.998653
99.591064	-19.381119
99.927521	-8.279443
100.263977	-12.386298
100.600433	-39.327835
100.936890	-64.013840
101.273346	-55.022820
101.609802	-54.798809
101.946259	-55.494255
102.282715	-56.372570
102.619171	-57.261585
102.955627	-58.112003
103.292084	-58.910656
103.628540	-59.656467
103.964996	-60.352497
104.301453	-61.003059
104.637909	-61.612591
104.974365	-62.185249
105.310822	-62.724781
105.647278	-63.234463
105.983734	-63.717232
106.320190	-64.175613
106.656647	-64.611824
106.993103	-65.027832
107.329559	-65.425346
107.666016	-65.805893
108.002472	-66.170815
108.338928	-66.521301
108.675385	-66.858437
109.011841	-67.183167
109.348297	-67.496361
109.684753	-67.798775
110.021210	-68.091133
110.357666	-68.374062
110.694122	-68.648117
111.030579	-68.913918
111.367035	-69.171791
111.703491	-69.422295
112.039948	-69.665810
112.376404	-69.902702
112.712860	-70.133324
113.049316	-70.357986
113.385773	-70.576988
113.722229	-70.790596
114.058685	-70.999077
114.395142	-71.202660
114.731598	-71.401566
115.068054	-71.596016
115.404510	-71.786179
115.740967	-71.972252
116.077423	-72.154419
116.413879	-72.332787
116.750336	-72.507561
117.086792	-72.678856
117.423248	-72.846817
117.759705	-73.011559
118.096161	-73.173203
118.432617	-73.331863
118.769073	-73.487656
119.105530	-73.640663
119.441986	-73.790993
119.778442	-73.938728
120.114899	-74.083954
120.451355	-74.226768
120.787811	-74.367241
121.124268	-74.505417
121.460724	-74.641327
121.797180	-74.775314
122.133636	-74.907089
122.470093	-75.036873
122.806549	-75.164719
123.143005	-75.290672
123.479462	-75.414780
123.815918	-75.537117
124.152374	-75.657715
124.488831	-75.776619
124.825287	-75.893875
125.161743	-76.009544
125.498199	-76.123650
125.834656	-76.236244
126.171112	-76.347366
126.507568	-76.457031
126.844025	-76.565308
127.180481	-76.672180
127.516937	-76.777756
127.853394	-76.882004
128.189850	-76.984993
128.526306	-77.086739
128.862762	-77.187256
129.199219	-77.286591
129.535675	-77.384773
129.872131	-77.481812
130.208588	-77.577744
130.545044	-77.672607
130.881500	-77.766388
131.217957	-77.859131
131.554413	-77.950874
131.890869	-78.041603
132.227325	-78.131371
132.563782	-78.220215
132.900238	-78.308060
133.236694	-78.395012
133.573151	-78.481094
133.909607	-78.566269
134.246063	-78.650589
134.582520	-78.734062
134.918976	-78.816711
135.255432	-78.898537
135.591888	-78.979568
135.928345	-79.059822
136.264801	-79.139297
136.601257	-79.218018
136.937714	-79.295998
137.274170	-79.373260
137.610626	-79.449814
137.947083	-79.525627
138.283539	-79.600784
138.619995	-79.675262
138.956451	-79.749062
139.292908	-79.822189
139.629364	-79.894691
139.965820	-79.966568
140.302277	-80.037811
140.638733	-80.108444
140.975189	-80.178467
141.311646	-80.247910
141.648102	-80.316772
141.984558	-80.385056
142.321014	-80.452766
142.657471	-80.519989
142.993927	-80.586411
143.330383	-80.652733
143.666840	-80.718163
144.003296	-80.783180
144.339752	-80.847702
144.676208	-80.911697
145.012665	-80.975197
145.349121	-81.038200
145.685577	-81.100739
146.022034	-81.162781
146.358490	-81.224350
146.694946	-81.285461
147.031403	-81.346130
147.367859	-81.406334
147.704315	-81.466095
148.040771	-81.525414
148.377228	-81.584335
148.713684	-81.642769
149.050140	-81.700821
149.386597	-81.758453
149.723053	-81.815681
150.059509	-81.872490
150.395966	-81.928917
150.732422	-81.984932
151.068878	-82.040581
151.405334	-82.095833
151.741791	-82.150711
152.078247	-82.205223
152.414703	-82.259361
152.751160	-82.313133
153.087616	-82.366554
153.424072	-82.419609
153.760529	-82.472321
154.096985	-82.524727
154.433441	-82.576729
154.769897	-82.628410
155.106354	-82.679779
155.442810	-82.730797
155.779266	-82.781509
156.115723	-82.831886
156.452179	-82.881958
156.788635	-82.931702
157.125092	-82.981148
157.461548	-83.030289
157.798004	-83.079132
158.134460	-83.127617
158.470917	-83.175888
158.807373	-83.223831
159.143829	-83.271599
159.480286	-83.318871
159.816742	-83.365997
160.153198	-83.412788
160.489655	-83.459312
160.826111	-83.505585
161.162567	-83.551575
161.499023	-83.597305
161.835480	-83.642769
162.171936	-83.687958
162.508392	-83.732925
162.844849	-83.777626
163.181305	-83.822044
163.517761	-83.866234
163.854218	-83.910179
164.190674	-83.953842
164.527130	-83.997192
164.863586	-84.040535
165.200043	-84.083481
165.536499	-84.126213
165.872955	-84.168724
166.209412	-84.210999
166.545868	-84.253044
166.882324	-84.294868
167.218781	-84.336479
167.555237	-84.377869
167.891693	-84.418991
168.228149	-84.459969
168.564606	-84.500671
168.901062	-84.541191
169.237518	-84.581497
169.573975	-84.621605
169.910431	-84.661514
170.246887	-84.701172
170.583344	-84.740669
170.919800	-84.779938
171.256256	-84.819046
171.592712	-84.857925
171.929169	-84.896614
172.265625	-84.935112
172.602081	-84.973450
172.938538	-85.011559
173.274994	-85.049500
173.611450	-85.087242
173.947906	-85.124809
174.284363	-85.162201
174.620819	-85.199371
174.957275	-85.236404
175.293732	-85.273224
175.630188	-85.309952
175.966644	-85.346413
176.303101	-85.382713
176.639557	-85.418877
176.976013	-85.454857
177.312469	-85.490685
177.648926	-85.526321
177.985382	-85.561821
178.321838	-85.597130
178.658295	-85.632271
178.994751	-85.667252
179.331207	-85.702118
179.667664	-85.736763
180.004120	-85.771271
180.340576	-85.805672
180.677032	-85.839867
181.013489	-85.873894
181.349945	-85.907822
181.686401	-85.941559
182.022858	-85.975143
182.359314	-86.008621
182.695770	-86.041939
183.032227	-86.075089
183.368683	-86.108109
183.705139	-86.140976
184.041595	-86.173691
184.378052	-86.206314
184.714508	-86.238747
185.050964	-86.271111
185.387421	-86.303238
185.723877	-86.335312
186.060333	-86.367508
186.396790	-86.398758
186.733246	-86.430573
187.069702	-86.462105
187.406158	-86.493469
187.742615	-86.524727
188.079071	-86.555801
188.415527	-86.586807
188.751984	-86.617653
189.088440	-86.648392
189.424896	-86.678978
189.761353	-86.709473
190.097809	-86.739830
190.434265	-86.770065
190.770721	-86.800171
191.107178	-86.830162
191.443634	-86.860054
191.780090	-86.889778
192.116547	-86.919426
192.453003	-86.948959
192.789459	-86.978363
193.125916	-87.007652
193.462372	-87.036804
193.798828	-87.065895
194.135284	-87.094826
194.471741	-87.123665
194.808197	-87.152367
195.144653	-87.181023
195.481110	-87.209473
195.817566	-87.237877
196.154022	-87.266151
196.490479	-87.294342
196.826935	-87.322418
197.163391	-87.350410
197.499847	-87.378265
197.836304	-87.405991
198.172760	-87.433662
198.509216	-87.461189
198.845673	-87.488670
199.182129	-87.515984
199.518585	-87.543266
199.855042	-87.570335
200.191498	-87.597473
200.527954	-87.624374
200.864410	-87.651230
201.200867	-87.677971
201.537323	-87.704582
201.873779	-87.731201
202.210236	-87.757660
202.546692	-87.784004
202.883148	-87.810303
203.219604	-87.836502
203.556061	-87.862556
203.892517	-87.888557
204.228973	-87.914459
204.565430	-87.940262
204.901886	-87.966003
205.238342	-87.991631
205.574799	-88.017166
205.911255	-88.042610
206.247711	-88.067970
206.584167	-88.093231
206.920624	-88.118469
207.257080	-88.143524
207.593536	-88.168472
207.929993	-88.193527
208.266449	-88.218361
208.602905	-88.243126
208.939362	-88.267776
209.275818	-88.292381
209.612274	-88.316902
209.948730	-88.341324
210.285187	-88.365685
210.621643	-88.389946
210.958099	-88.414116
211.294556	-88.438248
211.631012	-88.462273
211.967468	-88.486214
212.303925	-88.510086
212.640381	-88.533875
212.976837	-88.557610
213.313293	-88.581207
213.649750	-88.604782
213.986206	-88.628242
214.322662	-88.651680
214.659119	-88.674995
214.995575	-88.698257
215.332031	-88.721428
215.668488	-88.744530
216.004944	-88.767570
216.341400	-88.790512
216.677856	-88.813400
217.014313	-88.836220
217.350769	-88.859001
217.687225	-88.881668
218.023682	-88.904213
218.360138	-88.926765
218.696594	-88.949219
219.033051	-88.971619
219.369507	-88.993919
219.705963	-89.016220
220.042419	-89.038345
220.378876	-89.060463
220.715332	-89.082497
221.051788	-89.104485
221.388245	-89.126404
221.724701	-89.148224
222.061157	-89.170013
222.397614	-89.191704
222.734070	-89.213333
223.070526	-89.234886
223.406982	-89.256454
223.743439	-89.277885
224.079895	-89.299294
224.416351	-89.320595
224.752808	-89.341858
225.089264	-89.363029
225.425720	-89.384186
225.762177	-89.405243
226.098633	-89.426277
226.435089	-89.447174
226.771545	-89.468079
227.108002	-89.488892
227.444458	-89.509659
227.780914	-89.530373
228.117371	-89.550957
228.453827	-89.571625
228.790283	-89.592148
229.126740	-89.612442
229.463196	-89.633049
229.799652	-89.653305
230.136108	-89.673584
230.472565	-89.693825
230.809021	-89.713982
231.145477	-89.734085
231.481934	-89.754150
231.818390	-89.774147
232.154846	-89.794060
232.491302	-89.814003
232.827759	-89.833786
233.164215	-89.853554
233.500671	-89.873283
233.837128	-89.892944
234.173584	-89.912537
234.510040	-89.932091
234.846497	-89.951584
235.182953	-89.971016
235.519409	-89.990440
235.855865	-90.009781
236.192322	-90.029030
236.528778	-90.048279
236.865234	-90.067459
237.201691	-90.086586
237.538147	-90.105644
237.874603	-90.124695
238.211060	-90.143623
238.547516	-90.162552
238.883972	-90.181450
239.220428	-90.200249
239.556885	-90.219048
239.893341	-90.237701
240.229797	-90.256409
240.566254	-90.275002
240.902710	-90.293541
241.239166	-90.312096
241.575623	-90.330566
241.912079	-90.348969
242.248535	-90.367332
242.584991	-90.385666
242.921448	-90.403923
243.257904	-90.422173
243.594360	-90.440361
243.930817	-90.458458
244.267273	-90.476494
244.603729	-90.494766
244.940186	-90.512535
245.276642	-90.530510
245.613098	-90.548378
245.949554	-90.566284
246.286011	-90.584038
246.622467	-90.601837
246.958923	-90.619530
247.295380	-90.637177
247.631836	-90.654831
247.968292	-90.672401
248.304749	-90.689919
248.641205	-90.707420
248.977661	-90.724899
249.314117	-90.742249
249.650574	-90.759613
249.987030	-90.776924
250.323486	-90.794144
250.659943	-90.811340
250.996399	-90.828583
251.332855	-90.845695
251.669312	-90.862823
252.005768	-90.879875
252.342224	-90.896873
252.678680	-90.913857
253.015137	-90.930771
253.351593	-90.947647
253.688049	-90.964485
254.024506	-90.981216
254.360962	-90.998070
254.697418	-91.014771
255.033875	-91.031471
255.370331	-91.048035
255.706787	-91.064697
256.043243	-91.081238
256.379700	-91.097733
256.716156	-91.114212
257.052612	-91.130669
257.389069	-91.147041
257.725525	-91.163383
258.061981	-91.179726
258.398438	-91.195992
258.734894	-91.212227
259.071350	-91.228432
259.407806	-91.244568
259.744263	-91.260719
260.080719	-91.276787
260.417175	-91.292915
260.753632	-91.308846
261.090088	-91.324814
261.426544	-91.340721
261.763000	-91.356659
262.099457	-91.372498
262.435913	-91.388329
262.772369	-91.404068
263.108826	-91.419876
263.445282	-91.435539
263.781738	-91.451241
264.118195	-91.466820
264.454651	-91.482460
264.791107	-91.498032
265.127563	-91.513557
265.464020	-91.529022
265.800476	-91.544502
266.136932	-91.559921
266.473389	-91.575287
266.809845	-91.590637
267.146301	-91.605927
267.482758	-91.621246
267.819214	-91.636475
268.155670	-91.651695
268.492126	-91.666862
268.828583	-91.682007
269.165039	-91.697121
269.501495	-91.712196
269.837952	-91.727219
270.174408	-91.742233
270.510864	-91.757202
270.847321	-91.772125
271.183777	-91.787018
271.520233	-91.801903
271.856689	-91.816757
272.193146	-91.831894
272.529602	-91.846542
272.866058	-91.861023
273.202515	-91.875755
273.538971	-91.890434
273.875427	-91.905052
274.211884	-91.919662
274.548340	-91.934242
274.884796	-91.948776
275.221252	-91.963287
275.557709	-91.977722
275.894165	-91.992188
276.230621	-92.006607
276.567078	-92.020988
276.903534	-92.035355
277.239990	-92.049660
277.576447	-92.063972
277.912903	-92.078232
278.249359	-92.092453
278.585815	-92.106606
278.922272	-92.120811
279.258728	-92.134933
279.595184	-92.149048
279.931641	-92.163101
280.268097	-92.177170
280.604553	-92.191170
280.941010	-92.205139
281.277466	-92.219139
281.613922	-92.233032
281.950378	-92.246895
282.286835	-92.260757
282.623291	-92.274597
282.959747	-92.288406
283.296204	-92.302170
283.632660	-92.315964
283.969116	-92.329651
284.305573	-92.343315
284.642029	-92.356979
284.978485	-92.370628
285.314941	-92.384254
285.651398	-92.397758
285.987854	-92.411354
286.324310	-92.424850
286.660767	-92.438301
286.997223	-92.451813
287.333679	-92.465240
287.670135	-92.478638
288.006592	-92.492020
288.343048	-92.505356
288.679504	-92.518707
289.015961	-92.531944
289.352417	-92.545174
289.688873	-92.558487
290.025330	-92.571701
290.361786	-92.584831
290.698242	-92.598015
291.034698	-92.611145
291.371155	-92.624237
291.707611	-92.637329
292.044067	-92.650421
292.380524	-92.663376
292.716980	-92.676353
293.053436	-92.689323
293.389893	-92.702278
293.726349	-92.715096
294.062805	-92.728142
294.399261	-92.740952
294.735718	-92.753777
295.072174	-92.766548
295.408630	-92.779373
295.745087	-92.792160
296.081543	-92.804848
296.417999	-92.817574
296.754456	-92.830246
297.090912	-92.842918
297.427368	-92.855560
297.763824	-92.868141
298.100281	-92.880768
298.436737	-92.893250
298.773193	-92.905800
299.109650	-92.918350
299.446106	-92.930740
299.782562	-92.943260
300.119019	-92.955673
300.455475	-92.968086
300.791931	-92.980461
301.128387	-92.992821
301.464844	-93.005180
301.801300	-93.017456
302.137756	-93.029808
302.474213	-93.041969
302.810669	-93.054260
303.147125	-93.066460
303.483582	-93.078651
303.820038	-93.090805
304.156494	-93.102959
304.492950	-93.115036
304.829407	-93.127182
305.165863	-93.139198
305.502319	-93.151245
305.838776	-93.163216
306.175232	-93.175293
306.511688	-93.187286
306.848145	-93.199181
307.184601	-93.211151
307.521057	-93.223038
307.857513	-93.234917
308.193970	-93.246780
308.530426	-93.258629
308.866882	-93.270424
309.203339	-93.282204
309.539795	-93.294037
309.876251	-93.305740
310.212708	-93.317467
